Time,Pressure
0.0,300.0
1e-05,299.9958386
2e-05,299.9916839
3e-05,299.9875348
4e-05,299.9833907
5.03e-05,299.9791036
6.33e-05,299.9737132
7.97e-05,299.9669372
0.000100556,299.9584222
0.000126389,299.9477257
0.000159167,299.934295
0.000200556,299.9174404
0.0002525,299.8963029
0.000317778,299.8698158
0.0004,299.8366578
0.000503611,299.7951986
0.000633889,299.7434356
0.000798056,299.6789232
0.001004722,299.5986956
0.001265,299.4991884
0.0015925,299.3761663
0.002004722,299.2246684
0.002523889,299.0389934
0.003177222,298.81275
0.004,298.5390144
0.005035833,298.2106454
0.006339444,297.8208182
0.007981111,297.3638369
0.0100475,296.8362659
0.012649167,296.2383495
0.015924167,295.5755593
0.0200475,294.8599022
0.025238333,294.1104026
0.031773056,293.352091
0.04,292.6130892
0.050356944,291.9200883
0.063395833,291.2934274
0.079810556,290.7435313
0.100475556,290.2701091
0.126491111,289.8642933
0.159242778,289.5125638
0.200475,289.2007205
0.252383056,288.9165942
0.317731389,288.6511272
0.4,288.3982233
0.503570278,288.1540243
0.633957222,287.9161273
0.798105,287.6829888
1.004754444,287.4535513
1.264911111,287.2270393
1.592428611,287.0028557
2.004748889,286.7805289
2.523829444,286.5596837
3.177313056,286.340021
4.0,286.1213027
5.035701667,285.9033393
6.339572778,285.6859801
7.981049167,285.4691053
10.04754583,285.2526191
12.64911056,285.0364452
15.92428694,284.8205222
20.04748944,284.6048011
25.23829389,284.3892426
31.77312944,284.1738149
40.0,283.9584927
50.0,283.749905
60.0,283.579525
70.0,283.4354994
80.0,283.310757
90.0,283.2007387
100.0,283.1023329
110.0,283.0133204
120.0,282.9320633
130.0,282.8573179
140.0,282.7881174
150.0,282.7236957
160.0,282.6634352
170.0,282.6068309
180.0,282.5534642
190.0,282.5029849
200.0,282.4550964
210.0,282.4095458
220.0,282.3661153
230.0,282.3246163
240.0,282.2848844
250.0,282.2467752
260.0,282.2101612
270.0,282.1749297
280.0,282.14098
290.0,282.108222
300.0,282.076575
310.0,282.045966
320.0,282.0163292
330.0,281.9876046
340.0,281.9597379
350.0,281.9326791
360.0,281.9063828
370.0,281.8808072
380.0,281.8559139
390.0,281.8316673
400.0,281.8080348
410.0,281.784986
420.0,281.7624927
430.0,281.7405288
440.0,281.71907
450.0,281.6980935
460.0,281.6775781
470.0,281.6575041
480.0,281.6378528
490.0,281.6186067
500.0,281.5997496
510.0,281.5812659
520.0,281.5631412
530.0,281.5453618
540.0,281.5279149
550.0,281.5107881
560.0,281.4939699
570.0,281.4774495
580.0,281.4612165
590.0,281.445261
600.0,281.4295737
610.0,281.4141457
620.0,281.3989687
630.0,281.3840345
640.0,281.3693355
650.0,281.3548645
660.0,281.3406145
670.0,281.3265787
680.0,281.3127509
690.0,281.2991251
700.0,281.2856953
710.0,281.272456
720.0,281.2594019
730.0,281.246528
740.0,281.2338291
750.0,281.2213008
760.0,281.2089384
770.0,281.1967377
780.0,281.1846944
790.0,281.1728045
800.0,281.1610642
810.0,281.1494698
820.0,281.1380177
830.0,281.1267044
840.0,281.1155266
850.0,281.104481
860.0,281.0935647
870.0,281.0827746
880.0,281.0721079
890.0,281.0615617
900.0,281.0511333
910.0,281.0408202
920.0,281.0306198
930.0,281.0205296
940.0,281.0105474
950.0,281.0006709
960.0,280.9908978
970.0,280.9812259
980.0,280.9716533
990.0,280.9621779
995.0,280.957476
999.9999989,280.9527977
1000.0,280.9527977
1000.00001,280.9569591
1000.00002,280.9611137
1000.00003,280.9652628
1000.00004,280.9694069
1000.00005,280.9736941
1000.000063,280.9790845
1000.00008,280.9858604
1000.000101,280.9943754
1000.000126,281.0050719
1000.000159,281.0185025
1000.000201,281.0353571
1000.000253,281.0564945
1000.000318,281.0829816
1000.0004,281.1161395
1000.000504,281.1575987
1000.000634,281.2093615
1000.000798,281.2738738
1000.001005,281.3541012
1000.001265,281.4536081
1000.001593,281.57663
1000.002005,281.7281274
1000.002524,281.9138019
1000.003177,282.1400447
1000.004,282.4137796
1000.005036,282.7421476
1000.006339,283.1319736
1000.007981,283.5889533
1000.010047,284.1165224
1000.012649,284.7144364
1000.015924,285.3772236
1000.020047,286.0928768
1000.025238,286.8423715
1000.031773,287.600677
1000.04,288.3396712
1000.050357,289.0326624
1000.063396,289.6593112
1000.079811,290.209192
1000.100476,290.6825949
1000.126491,291.0883863
1000.159243,291.4400853
1000.200475,291.7518901
1000.252383,292.035968
1000.317731,292.301374
1000.4,292.5542011
1000.50357,292.7983035
1000.633957,293.0360789
1000.798105,293.2690643
1001.004754,293.4983091
1001.264911,293.7245785
1001.592429,293.948457
1002.004749,294.1703996
1002.523829,294.3907614
1003.177313,294.6098159
1004.0,294.8277692
1005.035702,295.0447703
1006.339573,295.2609194
1007.981049,295.4762731
1010.047546,295.6908478
1012.649111,295.9046209
1015.924287,296.1175302
1020.047489,296.3294709
1025.238294,296.5402921
1031.773129,296.7497897
1040.0,296.9576996
1050.0,297.1573559
1060.0,297.3188892
1070.0,297.4541513
1080.0,297.5702116
1090.0,297.6716278
1100.0,297.7615102
1110.0,297.8420763
1120.0,297.9149628
1130.0,297.9814122
1140.0,298.0423896
1150.0,298.09866
1160.0,298.1508398
1170.0,298.1994329
1180.0,298.2448564
1190.0,298.2874597
1200.0,298.327538
1210.0,298.3653433
1220.0,298.4010923
1230.0,298.4349723
1240.0,298.4671471
1250.0,298.4977598
1260.0,298.526937
1270.0,298.5547906
1280.0,298.5814203
1290.0,298.6069152
1300.0,298.6313552
1310.0,298.6548123
1320.0,298.6773518
1330.0,298.6990325
1340.0,298.7199083
1350.0,298.740028
1360.0,298.7594364
1370.0,298.7781746
1380.0,298.7962802
1390.0,298.8137881
1400.0,298.8307303
1410.0,298.8471364
1420.0,298.863034
1430.0,298.8784484
1440.0,298.8934034
1450.0,298.907921
1460.0,298.9220219
1470.0,298.9357253
1480.0,298.9490492
1490.0,298.9620104
1500.0,298.9746248
1510.0,298.9869071
1520.0,298.9988714
1530.0,299.0105308
1540.0,299.0218977
1550.0,299.0329837
1560.0,299.0438
1570.0,299.0543568
1580.0,299.0646642
1590.0,299.0747314
1600.0,299.0845673
1610.0,299.0941803
1620.0,299.1035785
1630.0,299.1127693
1640.0,299.1217601
1650.0,299.1305576
1660.0,299.1391684
1670.0,299.1475988
1680.0,299.1558546
1690.0,299.1639417
1700.0,299.1718653
1710.0,299.1796308
1720.0,299.1872429
1730.0,299.1947065
1740.0,299.2020261
1750.0,299.2092061
1760.0,299.2162506
1770.0,299.2231636
1780.0,299.2299489
1790.0,299.2366103
1800.0,299.2431512
1810.0,299.249575
1820.0,299.2558851
1830.0,299.2620845
1840.0,299.2681763
1850.0,299.2741633
1860.0,299.2800484
1870.0,299.2858343
1880.0,299.2915235
1890.0,299.2971186
1900.0,299.302622
1910.0,299.308036
1920.0,299.3133628
1930.0,299.3186047
1940.0,299.3237637
1950.0,299.3288419
1960.0,299.3338412
1970.0,299.3387635
1980.0,299.3436106
1990.0,299.3483844
1995.0,299.3507443
1999.999999,299.3530865
2000.0,299.3530865
2000.0,299.3530865
2000.00001,299.3496092
2000.00002,299.3465885
2000.00003,299.3438117
2000.00004,299.3412088
2000.00005,299.3386558
2000.000063,299.3356084
2000.00008,299.3319861
2000.000101,299.3276989
2000.000126,299.3226467
2000.000159,299.3167192
2000.000201,299.3097945
2000.000253,299.301739
2000.000318,299.2924062
2000.0004,299.2816353
2000.000504,299.26925
2000.000634,299.2550561
2000.000798,299.2388393
2000.001005,299.2203624
2000.001265,299.1993619
2000.001593,299.1755439
2000.002005,299.1485805
2000.002524,299.1181041
2000.003177,299.0837029
2000.004,299.0449153
2000.005036,299.001224
2000.006339,298.9520495
2000.007981,298.8967393
2000.010048,298.8345549
2000.012649,298.7646625
2000.015924,298.6861417
2000.020048,298.5980293
2000.025238,298.4994067
2000.031773,298.3895128
2000.04,298.2678609
2000.050357,298.1343141
2000.063396,297.9891515
2000.079811,297.8329354
2000.100476,297.6666322
2000.126491,297.4913252
2000.159243,297.3082015
2000.200475,297.1183109
2000.252383,296.9233158
2000.317731,296.7233123
2000.4,296.5202486
2000.50357,296.3141777
2000.633957,296.1059625
2000.798105,295.8960763
2001.004754,295.6849142
2001.264911,295.4727851
2001.592429,295.2599273
2002.004749,295.0465233
2002.523829,294.8327117
2003.177313,294.6185975
2004.0,294.40426
2005.035702,294.1897584
2006.339573,293.9751372
2007.981049,293.7604293
2010.047546,293.5456593
2012.649111,293.3308453
2015.924287,293.1160004
2020.047489,292.9011344
2025.238294,292.6862542
2031.773129,292.4713648
2040.0,292.2564697
2050.0,292.0482118
2060.0,291.8780515
2070.0,291.7341828
2080.0,291.609558
2090.0,291.4996313
2100.0,291.4012986
2110.0,291.312346
2120.0,291.2311388
2130.0,291.1564355
2140.0,291.0872712
2150.0,291.0228809
2160.0,290.9626478
2170.0,290.9060676
2180.0,290.8527225
2190.0,290.8022624
2200.0,290.7543913
2210.0,290.7088563
2220.0,290.66544
2230.0,290.6239541
2240.0,290.5842341
2250.0,290.5461358
2260.0,290.509532
2270.0,290.4743099
2280.0,290.4403688
2290.0,290.407619
2300.0,290.3759795
2310.0,290.3453777
2320.0,290.3157475
2330.0,290.2870291
2340.0,290.2591682
2350.0,290.232115
2360.0,290.2058239
2370.0,290.1802533
2380.0,290.1553646
2390.0,290.1311225
2400.0,290.1074942
2410.0,290.0844493
2420.0,290.0619599
2430.0,290.0399996
2440.0,290.0185443
2450.0,289.9975711
2460.0,289.977059
2470.0,289.956988
2480.0,289.9373395
2490.0,289.9180963
2500.0,289.8992418
2510.0,289.8807607
2520.0,289.8626385
2530.0,289.8448615
2540.0,289.8274169
2550.0,289.8102923
2560.0,289.7934763
2570.0,289.7769579
2580.0,289.7607269
2590.0,289.7447733
2600.0,289.7290879
2610.0,289.7136617
2620.0,289.6984864
2630.0,289.6835539
2640.0,289.6688566
2650.0,289.6543871
2660.0,289.6401386
2670.0,289.6261043
2680.0,289.612278
2690.0,289.5986536
2700.0,289.5852251
2710.0,289.5719872
2720.0,289.5589344
2730.0,289.5460617
2740.0,289.5333641
2750.0,289.5208369
2760.0,289.5084757
2770.0,289.4962761
2780.0,289.4842339
2790.0,289.4723451
2800.0,289.4606058
2810.0,289.4490124
2820.0,289.4375613
2830.0,289.4262489
2840.0,289.4150721
2850.0,289.4040275
2860.0,289.3931121
2870.0,289.3823228
2880.0,289.3716569
2890.0,289.3611116
2900.0,289.350684
2910.0,289.3403717
2920.0,289.3301721
2930.0,289.3200827
2940.0,289.3101013
2950.0,289.3002255
2960.0,289.2904531
2970.0,289.2807819
2980.0,289.27121
2990.0,289.2617353
2995.0,289.2570337
2999.999999,289.2523557
3000.0,289.2523557
3000.00001,289.255833
3000.00002,289.2588536
3000.00003,289.2616305
3000.00004,289.2642334
3000.00005,289.2667863
3000.000063,289.2698337
3000.00008,289.273456
3000.000101,289.2777432
3000.000126,289.2827953
3000.000159,289.2887228
3000.000201,289.2956475
3000.000253,289.3037029
3000.000318,289.3130357
3000.0004,289.3238065
3000.000504,289.3361917
3000.000634,289.3503855
3000.000798,289.3666022
3000.001005,289.3850788
3000.001265,289.4060792
3000.001593,289.4298968
3000.002005,289.4568598
3000.002524,289.4873357
3000.003177,289.5217363
3000.004,289.5605232
3000.005036,289.6042135
3000.006339,289.6533868
3000.007981,289.7086955
3000.010047,289.7708779
3000.012649,289.8407678
3000.015924,289.9192857
3000.020047,290.0073941
3000.025238,290.1060119
3000.031773,290.2158997
3000.04,290.337544
3000.050357,290.4710811
3000.063396,290.6162315
3000.079811,290.7724323
3000.100476,290.9387162
3000.126491,291.113999
3000.159243,291.2970921
3000.200475,291.4869442
3000.252383,291.6818909
3000.317731,291.8818335
3000.4,292.0848204
3000.50357,292.2907946
3000.633957,292.4988882
3000.798105,292.7086214
3001.004754,292.9195907
3001.264911,293.1314773
3001.592429,293.3440299
3002.004749,293.5570498
3002.523829,293.7703781
3003.177313,293.9838841
3004.0,294.1974566
3005.035702,294.410996
3006.339573,294.6244072
3007.981049,294.8375941
3010.047546,295.0504527
3012.649111,295.2628661
3015.924287,295.4746974
3020.047489,295.6857834
3025.238294,295.8959265
3031.773129,296.1048863
3040.0,296.3123696
3050.0,296.5116968
3060.0,296.6730109
3070.0,296.8081166
3080.0,296.9240599
3090.0,297.0253852
3100.0,297.115195
3110.0,297.1957018
3120.0,297.2685389
3130.0,297.3349466
3140.0,297.3958883
3150.0,297.4521279
3160.0,297.5042808
3170.0,297.5528502
3180.0,297.5982526
3190.0,297.6408371
3200.0,297.6808986
3210.0,297.7186887
3220.0,297.7544238
3230.0,297.7882913
3240.0,297.8204546
3250.0,297.8510568
3260.0,297.8802243
3270.0,297.9080689
3280.0,297.9346903
3290.0,297.9601775
3300.0,297.9846103
3310.0,298.0080608
3320.0,298.030594
3330.0,298.0522689
3340.0,298.0731391
3350.0,298.0932536
3360.0,298.1126572
3370.0,298.1313908
3380.0,298.1494921
3390.0,298.1669959
3400.0,298.1839342
3410.0,298.2003367
3420.0,298.2162307
3430.0,298.2316418
3440.0,298.2465936
3450.0,298.2611083
3460.0,298.2752063
3470.0,298.288907
3480.0,298.3022282
3490.0,298.315187
3500.0,298.3277989
3510.0,298.340079
3520.0,298.3520411
3530.0,298.3636984
3540.0,298.3750632
3550.0,298.3861473
3560.0,298.3969617
3570.0,298.4075168
3580.0,298.4178224
3590.0,298.427888
3600.0,298.4377223
3610.0,298.4473338
3620.0,298.4567304
3630.0,298.4659198
3640.0,298.4749092
3650.0,298.4837053
3660.0,298.4923149
3670.0,298.500744
3680.0,298.5089987
3690.0,298.5170846
3700.0,298.5250071
3710.0,298.5327714
3720.0,298.5403825
3730.0,298.547845
3740.0,298.5551637
3750.0,298.5623427
3760.0,298.5693862
3770.0,298.5762983
3780.0,298.5830827
3790.0,298.5897432
3800.0,298.5962833
3810.0,298.6027063
3820.0,298.6090156
3830.0,298.6152142
3840.0,298.6213053
3850.0,298.6272916
3860.0,298.633176
3870.0,298.6389612
3880.0,298.6446497
3890.0,298.6502442
3900.0,298.6557469
3910.0,298.6611603
3920.0,298.6664865
3930.0,298.6717278
3940.0,298.6768863
3950.0,298.6819639
3960.0,298.6869626
3970.0,298.6918844
3980.0,298.696731
3990.0,298.7015042
3995.0,298.7038639
3999.999999,298.7062058
4000.0,298.7062058
4000.0,298.7062058
4000.00001,298.7029568
4000.00002,298.7002669
4000.00003,298.6978556
4000.00004,298.6956353
4000.00005,298.693488
4000.000063,298.6909577
4000.00008,298.6879892
4000.000101,298.6845213
4000.000126,298.6804874
4000.000159,298.675814
4000.000201,298.6704207
4000.000253,298.6642192
4000.000318,298.6571124
4000.0004,298.648993
4000.000504,298.6397423
4000.000634,298.6292283
4000.000798,298.617304
4000.001005,298.6038051
4000.001265,298.5885478
4000.001593,298.5713259
4000.002005,298.5519081
4000.002524,298.5300358
4000.003177,298.5054187
4000.004,298.4777302
4000.005036,298.4466005
4000.006339,298.4116123
4000.007981,298.3723049
4000.010048,298.3281969
4000.012649,298.2788293
4000.015924,298.2238227
4000.020048,298.1629355
4000.025238,298.0961012
4000.031773,298.0234614
4000.04,297.9452985
4000.050357,297.8620977
4000.063396,297.774401
4000.079811,297.6828016
4000.100476,297.5878251
4000.126491,297.4903034
4000.159243,297.3902808
4000.200475,297.2887308
4000.252383,297.1856842
4000.317731,297.0815668
4000.4,296.9766162
4000.50357,296.8710295
4000.633957,296.7649606
4000.798105,296.6585285
4001.004754,296.551824
4001.264911,296.4449164
4001.592429,296.337858
4002.004749,296.2306882
4002.523829,296.1234367
4003.177313,296.0161254
4004.0,295.9087705
4005.035702,295.801384
4006.339573,295.6939758
4007.981049,295.5865556
4010.047546,295.4791343
4012.649111,295.3717183
4015.924287,295.2642992
4020.047489,295.1568523
4025.238294,295.0493764
4031.773129,294.9419963
4040.0,294.8351098
4050.0,294.7327471
4060.0,294.6507723
4070.0,294.5832234
4080.0,294.526418
4090.0,294.4778977
4100.0,294.435933
4110.0,294.3992594
4120.0,294.3669255
4130.0,294.3381993
4140.0,294.3125066
4150.0,294.28939
4160.0,294.2684804
4170.0,294.2494761
4180.0,294.2321284
4190.0,294.2162304
4200.0,294.2016077
4210.0,294.1881132
4220.0,294.1756217
4230.0,294.1640255
4240.0,294.1532321
4250.0,294.1431611
4260.0,294.1337425
4270.0,294.1249153
4280.0,294.1166254
4290.0,294.1088254
4300.0,294.1014733
4310.0,294.0945317
4320.0,294.0879673
4330.0,294.0817501
4340.0,294.0758536
4350.0,294.0702534
4360.0,294.0649279
4370.0,294.0598574
4380.0,294.0550241
4390.0,294.0504117
4400.0,294.0460055
4410.0,294.0417919
4420.0,294.0377587
4430.0,294.0338945
4440.0,294.030189
4450.0,294.0266325
4460.0,294.0232163
4470.0,294.0199323
4480.0,294.016773
4490.0,294.0137313
4500.0,294.0108009
4510.0,294.0079757
4520.0,294.0052503
4530.0,294.0026193
4540.0,294.0000781
4550.0,293.9976221
4560.0,293.995247
4570.0,293.992949
4580.0,293.9907244
4590.0,293.9885696
4600.0,293.9864816
4610.0,293.9844571
4620.0,293.9824935
4630.0,293.9805879
4640.0,293.9787378
4650.0,293.9769409
4660.0,293.9751949
4670.0,293.9734976
4680.0,293.9718471
4690.0,293.9702414
4700.0,293.9686788
4710.0,293.9671575
4720.0,293.9656759
4730.0,293.9642325
4740.0,293.9628259
4750.0,293.9614545
4760.0,293.9601172
4770.0,293.9588127
4780.0,293.9575398
4790.0,293.9562973
4800.0,293.9550842
4810.0,293.9538995
4820.0,293.9527421
4830.0,293.9516111
4840.0,293.9505057
4850.0,293.9494249
4860.0,293.948368
4870.0,293.9473342
4880.0,293.9463228
4890.0,293.9453329
4900.0,293.944364
4910.0,293.9434153
4920.0,293.9424863
4930.0,293.9415764
4940.0,293.9406849
4950.0,293.9398113
4960.0,293.938955
4970.0,293.9381157
4980.0,293.9372927
4990.0,293.9364856
4995.0,293.9360878
4999.999999,293.9356939
5000.0,293.9356939
5000.00001,293.9389428
5000.00002,293.9416327
5000.00003,293.944044
5000.00004,293.9462644
5000.00005,293.9484116
5000.000063,293.9509419
5000.00008,293.9539105
5000.000101,293.9573783
5000.000126,293.9614123
5000.000159,293.9660856
5000.000201,293.9714789
5000.000253,293.9776804
5000.000318,293.9847872
5000.0004,293.9929066
5000.000504,294.0021573
5000.000634,294.0126713
5000.000798,294.0245956
5000.001005,294.0380944
5000.001265,294.0533517
5000.001593,294.0705737
5000.002005,294.0899914
5000.002524,294.1118636
5000.003177,294.1364807
5000.004,294.1641692
5000.005036,294.1952988
5000.006339,294.2302869
5000.007981,294.2695941
5000.010047,294.313702
5000.012649,294.3630694
5000.015924,294.4180757
5000.020047,294.4789626
5000.025238,294.5457965
5000.031773,294.6184357
5000.04,294.696598
5000.050357,294.779798
5000.063396,294.8674936
5000.079811,294.9590918
5000.100476,295.0540666
5000.126491,295.1515863
5000.159243,295.2516064
5000.200475,295.3531532
5000.252383,295.4561957
5000.317731,295.5603079
5000.4,295.6652521
5000.50357,295.7708307
5000.633957,295.8768894
5000.798105,295.9833087
5001.004754,296.0899969
5001.264911,296.1968842
5001.592429,296.303917
5002.004749,296.4110545
5002.523829,296.5182656
5003.177313,296.6255259
5004.0,296.7328168
5005.035702,296.8401227
5006.339573,296.9474298
5007.981049,297.054723
5010.047546,297.1619851
5012.649111,297.2692014
5015.924287,297.3763705
5020.047489,297.483505
5025.238294,297.5905909
5031.773129,297.6974855
5040.0,297.803769
5050.0,297.905411
5060.0,297.9866781
5070.0,298.0535318
5080.0,298.1096546
5090.0,298.1575043
5100.0,298.1988099
5110.0,298.234836
5120.0,298.2665334
5130.0,298.294634
5140.0,298.3197117
5150.0,298.3422235
5160.0,298.3625383
5170.0,298.3809576
5180.0,298.3977299
5190.0,298.4130619
5200.0,298.4271275
5210.0,298.4400739
5220.0,298.4520259
5230.0,298.463091
5240.0,298.4733617
5250.0,298.4829179
5260.0,298.4918297
5270.0,298.5001578
5280.0,298.5079562
5290.0,298.5152719
5300.0,298.5221469
5310.0,298.5286185
5320.0,298.5347198
5330.0,298.5404806
5340.0,298.5459274
5350.0,298.5510842
5360.0,298.5559727
5370.0,298.5606123
5380.0,298.5650208
5390.0,298.5692143
5400.0,298.5732074
5410.0,298.5770135
5420.0,298.5806448
5430.0,298.5841126
5440.0,298.587427
5450.0,298.5905976
5460.0,298.593633
5470.0,298.5965413
5480.0,298.5993298
5490.0,298.6020055
5500.0,298.6045747
5510.0,298.6070433
5520.0,298.6094167
5530.0,298.6117001
5540.0,298.6138981
5550.0,298.6160153
5560.0,298.6180556
5570.0,298.6200231
5580.0,298.6219213
5590.0,298.6237535
5600.0,298.625523
5610.0,298.6272327
5620.0,298.6288855
5630.0,298.6304839
5640.0,298.6320304
5650.0,298.6335273
5660.0,298.6349768
5670.0,298.6363811
5680.0,298.6377419
5690.0,298.6390613
5700.0,298.6403409
5710.0,298.6415824
5720.0,298.6427874
5730.0,298.6439573
5740.0,298.6450935
5750.0,298.6461974
5760.0,298.6472702
5770.0,298.6483132
5780.0,298.6493274
5790.0,298.650314
5800.0,298.651274
5810.0,298.6522084
5820.0,298.653118
5830.0,298.6540039
5840.0,298.6548669
5850.0,298.6557077
5860.0,298.6565273
5870.0,298.6573261
5880.0,298.6581051
5890.0,298.6588649
5900.0,298.6596061
5910.0,298.6603294
5920.0,298.6610354
5930.0,298.6617245
5940.0,298.6623974
5950.0,298.6630546
5960.0,298.6636965
5970.0,298.6643238
5980.0,298.6649367
5990.0,298.6655359
5995.0,298.6658304
